#Acq. time (s)=	600
#Accumulations=	2
#Range=	Off
#Autofocus=	Off
#AutoExposure=	Off
#Spike filter=	Multiple accum.
#Delay time (s)=	0
#Binning=	1
#Readout mode=	Signal
#DeNoise=	Off
#ICS correction=	Off
#Dark correction=	Off
#Inst. Process=	Off
#Detector Gain=	Best Dynamic Range
#Detector ADC=	20 kHz       
#Detector temperature (°C)=	-128.92
#Instrument=	LabRAM HR Evol
#Detector=	Synapse/Symphony II
#Objective=	x50_VIS_LWD
#Grating=	1800 (450-850nm)
#ND Filter=	25%
#Laser=	532nm_Edge
#Spectro (cm-¹)=	279.986
#Hole=	150.001
#Range=	Visible
#AFM=	Off
#Collection=	Microscope
#StageXY=	Manual stage
#StageZ=	Marzhauser
#X (µm)=	0
#Y (µm)=	0
#Z (µm)=	524.65
#Full time(mm:ss)=	20:01
#Project=	Caps
#Sample=	Caps
#Site=	Caps
#Title=	CaMn2Bi2_2
#Remark=	
#Date=	02.07.2023 18:22
#End Platform Temp (K)=	179.994
#Polarizer=	69.998286
#Analyzer=	0
#Acquired=	02.07.2023 18:22:38
#AxisType[0]=Intens
#AxisUnit[0]=Cnt/sec
#AxisType[1]=Spectr
#AxisUnit[1]=1/cm
533.589	0.101667
533.102	0.085
532.614	0.0833333
532.127	0.09
531.64	0.0833333
531.151	0.085
530.665	0.0816667
530.176	0.09
529.689	0.0866667
529.2	0.09
528.713	0.0933333
528.224	0.0883333
527.737	0.0933333
527.249	0.0983333
526.762	0.0966667
526.275	0.095
525.785	0.09
525.298	0.0916667
524.809	0.0866667
524.32	0.0966667
523.833	0.075
523.344	0.085
522.857	0.1
522.367	0.0866667
521.88	0.095
521.391	0.0833333
520.904	0.0933333
520.414	0.0916667
519.927	0.09
519.438	0.09
518.948	0.09
518.461	0.09
517.971	0.09
517.484	0.0916667
516.994	0.0866667
516.505	0.0966667
516.017	0.0766667
515.527	0.09
515.038	0.0883333
514.55	0.0933333
514.061	0.0983333
513.573	0.095
513.083	0.0833333
512.593	0.0883333
512.106	0.0833333
511.616	0.09
511.126	0.0933333
510.638	0.0766667
510.148	0.0933333
509.658	0.0933333
509.168	0.0766667
508.68	0.1
508.19	0.0916667
507.7	0.0866667
507.212	0.101667
506.722	0.0933333
506.232	0.103333
505.742	0.105
505.254	0.0916667
504.764	0.101667
504.273	0.0966667
503.783	0.0966667
503.295	0.0966667
502.805	0.095
502.314	0.0966667
501.824	0.0983333
501.334	0.0866667
500.845	0.103333
500.355	0.09
499.864	0.08
499.374	0.0983333
498.883	0.09
498.395	0.0983333
497.904	0.1
497.414	0.0966667
496.923	0.0883333
496.433	0.101667
495.942	0.095
495.451	0.0966667
494.963	0.0983333
494.472	0.105
493.981	0.0966667
493.49	0.101667
492.999	0.0883333
492.509	0.101667
492.018	0.105
491.527	0.095
491.036	0.1
490.545	0.0983333
490.056	0.108333
489.565	0.108333
489.074	0.1
488.583	0.1
488.092	0.113333
487.601	0.1
487.11	0.0916667
486.618	0.0966667
486.127	0.1
485.636	0.105
485.145	0.0966667
484.654	0.095
484.162	0.105
483.671	0.0966667
483.18	0.09
482.688	0.103333
482.197	0.0966667
481.705	0.101667
481.214	0.0966667
480.722	0.111667
480.231	0.103333
479.739	0.0883333
479.248	0.0983333
478.756	0.101667
478.265	0.095
477.771	0.0966667
477.279	0.113333
476.788	0.09
476.296	0.1
475.804	0.108333
475.312	0.111667
474.821	0.11
474.329	0.101667
473.837	0.113333
473.345	0.09
472.851	0.113333
472.359	0.11
471.867	0.111667
471.375	0.11
470.883	0.108333
470.391	0.101667
469.897	0.118333
469.405	0.121667
468.913	0.133333
468.421	0.131667
467.929	0.133333
467.436	0.136667
466.942	0.155
466.45	0.156667
465.958	0.145
465.465	0.173333
464.971	0.186667
464.479	0.165
463.986	0.18
463.494	0.17
463.001	0.17
462.507	0.15
462.014	0.16
461.522	0.136667
461.027	0.146667
460.535	0.135
460.042	0.13
459.55	0.126667
459.055	0.123333
458.562	0.125
458.069	0.123333
457.575	0.118333
457.082	0.115
456.589	0.111667
456.094	0.105
455.602	0.121667
455.109	0.108333
454.614	0.101667
454.121	0.113333
453.628	0.103333
453.133	0.0983333
452.64	0.101667
452.147	0.105
451.652	0.0983333
451.159	0.108333
450.664	0.105
450.17	0.105
449.677	0.103333
449.182	0.0983333
448.689	0.1
448.194	0.1
447.7	0.101667
447.207	0.106667
446.712	0.1
446.218	0.103333
445.723	0.0983333
445.23	0.101667
444.734	0.103333
444.241	0.108333
443.745	0.095
443.252	0.0983333
442.756	0.101667
442.263	0.105
441.767	0.095
441.273	0.0933333
440.778	0.105
440.284	0.101667
439.788	0.1
439.295	0.1
438.799	0.095
438.305	0.113333
437.809	0.111667
437.315	0.103333
436.819	0.101667
436.326	0.1
435.83	0.09
435.334	0.0966667
434.84	0.106667
434.344	0.1
433.85	0.105
433.354	0.11
432.858	0.103333
432.363	0.103333
431.867	0.101667
431.373	0.103333
430.877	0.108333
430.381	0.101667
429.887	0.106667
429.39	0.105
428.894	0.115
428.4	0.0966667
427.903	0.0933333
427.407	0.11
426.912	0.108333
426.416	0.11
425.919	0.095
425.425	0.09
424.928	0.106667
424.432	0.103333
423.937	0.101667
423.441	0.103333
422.944	0.101667
422.45	0.108333
421.953	0.111667
421.456	0.118333
420.959	0.095
420.465	0.101667
419.968	0.103333
419.471	0.101667
418.974	0.11
418.479	0.111667
417.982	0.11
417.485	0.106667
416.989	0.0983333
416.492	0.103333
415.997	0.0916667
415.5	0.1
415.002	0.095
414.505	0.105
414.008	0.101667
413.513	0.105
413.016	0.095
412.519	0.11
412.022	0.0966667
411.524	0.1
411.027	0.106667
410.532	0.103333
410.034	0.105
409.537	0.106667
409.04	0.103333
408.542	0.111667
408.045	0.101667
407.547	0.0983333
407.05	0.103333
406.552	0.1
406.057	0.095
405.559	0.0916667
405.062	0.0966667
404.564	0.0933333
404.066	0.111667
403.569	0.09
403.071	0.101667
402.573	0.108333
402.075	0.095
401.577	0.103333
401.08	0.0866667
400.582	0.108333
400.084	0.101667
399.586	0.0983333
399.088	0.0933333
398.59	0.09
398.092	0.09
397.594	0.095
397.096	0.0866667
396.598	0.0983333
396.1	0.1
395.602	0.0916667
395.104	0.115
394.605	0.095
394.107	0.085
393.609	0.108333
393.111	0.0983333
392.612	0.0983333
392.114	0.111667
391.616	0.11
391.117	0.103333
390.619	0.1
390.119	0.106667
389.62	0.101667
389.122	0.095
388.623	0.0966667
388.125	0.0966667
387.626	0.105
387.128	0.0983333
386.629	0.0916667
386.128	0.0916667
385.63	0.106667
385.131	0.101667
384.632	0.095
384.133	0.0983333
383.635	0.106667
383.136	0.0966667
382.635	0.115
382.136	0.108333
381.637	0.103333
381.138	0.0933333
380.639	0.1
380.138	0.105
379.639	0.103333
379.14	0.106667
378.641	0.0866667
378.142	0.1
377.641	0.0983333
377.142	0.108333
376.643	0.0983333
376.144	0.103333
375.642	0.0966667
375.143	0.106667
374.644	0.0933333
374.145	0.105
373.643	0.108333
373.144	0.103333
372.644	0.108333
372.143	0.108333
371.644	0.106667
371.144	0.0983333
370.643	0.101667
370.143	0.1
369.644	0.11
369.142	0.113333
368.642	0.118333
368.143	0.108333
367.641	0.103333
367.141	0.106667
366.642	0.113333
366.14	0.0966667
365.64	0.0933333
365.14	0.118333
364.638	0.113333
364.139	0.113333
363.637	0.11
363.137	0.101667
362.637	0.116667
362.135	0.106667
361.635	0.1
361.133	0.101667
360.633	0.113333
360.133	0.11
359.631	0.113333
359.131	0.103333
358.628	0.105
358.128	0.115
357.626	0.118333
357.126	0.116667
356.623	0.11
356.123	0.113333
355.621	0.115
355.12	0.131667
354.618	0.128333
354.118	0.113333
353.615	0.118333
353.115	0.118333
352.612	0.116667
352.112	0.106667
351.609	0.111667
351.109	0.103333
350.606	0.111667
350.105	0.11
349.603	0.115
349.102	0.111667
348.599	0.123333
348.099	0.116667
347.596	0.113333
347.093	0.106667
346.592	0.105
346.089	0.118333
345.589	0.106667
345.086	0.108333
344.583	0.101667
344.082	0.116667
343.579	0.106667
343.078	0.108333
342.575	0.101667
342.072	0.105
341.57	0.108333
341.067	0.11
340.564	0.11
340.063	0.105
339.56	0.105
339.056	0.123333
338.555	0.111667
338.052	0.103333
337.549	0.101667
337.047	0.106667
336.544	0.108333
336.04	0.11
335.539	0.11
335.036	0.101667
334.532	0.106667
334.029	0.101667
333.527	0.11
333.023	0.11
332.52	0.1
332.016	0.106667
331.515	0.106667
331.011	0.106667
330.507	0.1
330.003	0.118333
329.502	0.11
328.998	0.103333
328.494	0.1
327.99	0.118333
327.488	0.105
326.984	0.11
326.48	0.11
325.976	0.121667
325.472	0.108333
324.968	0.118333
324.466	0.105
323.962	0.105
323.458	0.106667
322.954	0.108333
322.45	0.105
321.946	0.11
321.444	0.11
320.939	0.108333
320.435	0.111667
319.931	0.113333
319.426	0.12
318.922	0.106667
318.418	0.0983333
317.913	0.111667
317.409	0.108333
316.906	0.0966667
316.402	0.115
315.897	0.106667
315.393	0.106667
314.888	0.116667
314.384	0.108333
313.879	0.095
313.374	0.11
312.87	0.103333
312.365	0.113333
311.86	0.123333
311.355	0.108333
310.85	0.103333
310.346	0.11
309.841	0.11
309.336	0.113333
308.831	0.125
308.326	0.106667
307.821	0.113333
307.316	0.095
306.811	0.101667
306.306	0.108333
305.801	0.11
305.296	0.106667
304.791	0.113333
304.285	0.116667
303.78	0.105
303.275	0.11
302.77	0.105
302.264	0.116667
301.759	0.116667
301.254	0.11
300.746	0.113333
300.241	0.116667
299.736	0.11
299.23	0.111667
298.725	0.113333
298.219	0.118333
297.714	0.111667
297.208	0.105
296.7	0.108333
296.195	0.113333
295.689	0.125
295.184	0.136667
294.678	0.12
294.172	0.116667
293.666	0.116667
293.159	0.111667
292.653	0.118333
292.147	0.115
291.641	0.12
291.135	0.116667
290.627	0.12
290.121	0.116667
289.615	0.116667
289.109	0.12
288.603	0.11
288.095	0.12
287.589	0.12
287.083	0.123333
286.577	0.118333
286.068	0.128333
285.562	0.128333
285.056	0.131667
284.55	0.123333
284.041	0.121667
283.535	0.123333
283.029	0.128333
282.52	0.103333
282.014	0.128333
281.508	0.116667
281.001	0.123333
280.493	0.121667
279.986	0.11
279.48	0.116667
278.971	0.111667
278.464	0.128333
277.958	0.125
277.449	0.118333
276.942	0.135
276.436	0.115
275.927	0.133333
275.42	0.123333
274.911	0.116667
274.404	0.118333
273.898	0.11
273.389	0.115
272.882	0.123333
272.375	0.123333
271.866	0.125
271.359	0.118333
270.85	0.118333
270.343	0.115
269.834	0.133333
269.327	0.115
268.819	0.126667
268.31	0.125
267.803	0.116667
267.294	0.105
266.787	0.13
266.277	0.115
265.77	0.135
265.261	0.125
264.753	0.118333
264.244	0.118333
263.736	0.135
263.227	0.128333
262.719	0.111667
262.21	0.118333
261.702	0.113333
261.193	0.118333
260.685	0.121667
260.176	0.128333
259.668	0.116667
259.158	0.118333
258.651	0.115
258.141	0.118333
257.633	0.121667
257.123	0.126667
256.613	0.12
256.105	0.118333
255.596	0.118333
255.088	0.11
254.578	0.11
254.07	0.105
253.56	0.116667
253.05	0.118333
252.542	0.116667
252.032	0.116667
251.521	0.12
251.013	0.118333
250.503	0.113333
249.995	0.106667
249.485	0.118333
248.974	0.126667
248.466	0.115
247.956	0.106667
247.446	0.123333
246.937	0.126667
246.427	0.103333
245.916	0.133333
245.408	0.116667
244.897	0.118333
244.387	0.116667
243.876	0.123333
243.368	0.13
242.857	0.121667
242.346	0.126667
241.838	0.116667
241.327	0.115
240.816	0.13
240.306	0.123333
239.797	0.125
239.286	0.128333
238.775	0.123333
238.264	0.12
237.756	0.128333
237.245	0.126667
236.734	0.131667
236.223	0.105
235.712	0.121667
235.203	0.116667
234.692	0.125
234.181	0.131667
233.669	0.123333
233.158	0.121667
232.649	0.126667
232.138	0.111667
231.627	0.121667
231.115	0.125
230.604	0.138333
230.093	0.128333
229.581	0.115
229.072	0.12
228.561	0.121667
228.049	0.128333
227.538	0.125
227.026	0.12
226.515	0.123333
226.003	0.123333
225.492	0.118333
224.98	0.138333
224.471	0.135
223.959	0.133333
223.447	0.121667
222.935	0.121667
222.424	0.131667
221.912	0.13
221.4	0.131667
220.888	0.151667
220.376	0.136667
219.864	0.128333
219.353	0.13
218.841	0.136667
218.329	0.126667
217.817	0.13
217.305	0.138333
216.793	0.123333
216.28	0.14
215.768	0.145
215.256	0.136667
214.744	0.128333
214.232	0.14
213.72	0.143333
213.207	0.141667
212.695	0.136667
212.183	0.138333
211.67	0.136667
211.158	0.14
210.646	0.14
210.133	0.131667
209.621	0.148333
209.108	0.141667
208.596	0.133333
208.081	0.135
207.568	0.143333
207.056	0.143333
206.543	0.163333
206.031	0.141667
205.518	0.15
205.005	0.16
204.492	0.141667
203.98	0.141667
203.465	0.15
202.952	0.131667
202.439	0.146667
201.926	0.146667
201.413	0.156667
200.9	0.146667
200.387	0.148333
199.872	0.145
199.359	0.141667
198.846	0.146667
198.333	0.136667
197.82	0.143333
197.305	0.148333
196.792	0.14
196.278	0.133333
195.765	0.15
195.252	0.13
194.736	0.133333
194.223	0.14
193.71	0.14
193.196	0.12
192.681	0.131667
192.167	0.14
191.654	0.143333
191.141	0.135
190.625	0.126667
190.111	0.14
189.598	0.115
189.082	0.123333
188.569	0.125
188.055	0.126667
187.541	0.141667
187.025	0.143333
186.512	0.138333
185.998	0.148333
185.482	0.133333
184.968	0.133333
184.454	0.135
183.938	0.133333
183.424	0.145
182.91	0.135
182.394	0.13
181.88	0.13
181.366	0.138333
180.85	0.133333
180.336	0.136667
179.82	0.131667
179.306	0.14
178.792	0.115
178.275	0.136667
177.761	0.128333
177.245	0.128333
176.73	0.126667
176.216	0.131667
175.7	0.148333
175.185	0.116667
174.669	0.123333
174.154	0.131667
173.638	0.138333
173.123	0.12
172.609	0.13
172.092	0.131667
171.578	0.133333
171.061	0.131667
170.546	0.135
170.03	0.131667
169.515	0.101667
168.998	0.131667
168.483	0.138333
167.967	0.126667
167.452	0.13
166.935	0.133333
166.42	0.12
165.903	0.125
165.388	0.141667
164.871	0.133333
164.354	0.141667
163.839	0.145
163.322	0.14
162.807	0.138333
162.29	0.126667
161.774	0.143333
161.257	0.136667
160.742	0.14
160.225	0.146667
159.707	0.148333
159.192	0.158333
158.675	0.178333
158.159	0.198333
157.642	0.228333
157.125	0.256667
156.609	0.398333
156.092	0.413333
155.574	0.363333
155.059	0.27
154.541	0.218333
154.023	0.188333
153.508	0.178333
152.99	0.161667
152.474	0.156667
151.957	0.145
151.439	0.15
150.921	0.151667
150.405	0.153333
149.887	0.138333
149.37	0.148333
148.854	0.146667
148.336	0.158333
147.818	0.148333
147.302	0.145
146.784	0.141667
146.266	0.138333
145.748	0.151667
145.232	0.133333
144.713	0.138333
144.195	0.136667
143.677	0.123333
143.161	0.136667
142.643	0.13
142.124	0.13
141.606	0.141667
141.09	0.158333
140.571	0.17
140.053	0.163333
139.534	0.163333
139.016	0.148333
138.5	0.143333
137.981	0.13
137.462	0.133333
136.944	0.131667
136.425	0.138333
135.907	0.13
135.39	0.141667
134.871	0.145
134.352	0.141667
133.834	0.155
133.315	0.138333
132.796	0.15
132.277	0.146667
131.76	0.175
131.242	0.156667
130.723	0.165
130.204	0.155
129.685	0.155
129.166	0.146667
128.647	0.13
128.127	0.145
127.608	0.146667
127.089	0.143333
126.57	0.15
126.053	0.153333
125.534	0.155
125.014	0.165
124.495	0.191667
123.976	0.178333
123.456	0.168333
122.937	0.15
122.418	0.148333
121.898	0.158333
121.379	0.145
120.859	0.146667
120.34	0.151667
119.82	0.163333
119.301	0.188333
118.781	0.171667
118.261	0.171667
117.742	0.161667
117.222	0.178333
116.702	0.17
116.183	0.196667
115.663	0.183333
115.143	0.163333
114.623	0.151667
114.103	0.166667
113.583	0.168333
113.061	0.18
112.541	0.161667
112.021	0.158333
111.501	0.181667
110.981	0.203333
110.461	0.2
109.941	0.22
109.421	0.245
108.901	0.271667
108.381	0.311667
107.858	0.31
107.338	0.321667
106.818	0.31
106.297	0.311667
105.777	0.313333
105.257	0.325
104.736	0.333333
104.214	0.356667
103.693	0.381667
103.173	0.393333
102.652	0.431667
102.132	0.483333
101.611	0.53
101.088	0.563333
100.568	0.626667
100.047	0.638333
99.5265	0.603333
99.0058	0.61
98.4829	0.578333
97.9622	0.536667
97.4414	0.508333
96.9206	0.506667
96.3997	0.483333
95.8767	0.498333
95.3558	0.496667
94.8348	0.45
94.3139	0.461667
93.7907	0.485
93.2697	0.58
92.7486	0.711667
92.2254	0.738333
91.7043	0.65
91.1831	0.505
90.662	0.446667
90.1386	0.395
89.6174	0.373333
89.0961	0.385
88.5727	0.368333
88.0514	0.38
87.53	0.393333
87.0065	0.398333
86.4851	0.396667
85.9637	0.41
85.4401	0.43
84.9186	0.488333
84.397	0.508333
83.8733	0.453333
83.3518	0.44
82.8301	0.431667
82.3064	0.453333
81.7847	0.456667
81.2609	0.5
80.7391	0.523333
80.2174	0.555
79.6935	0.566667
79.1716	0.608333
78.6477	0.638333
78.1258	0.663333
77.6039	0.76
77.0798	0.788333
76.5578	0.785
76.0337	0.763333
75.5117	0.718333
74.9875	0.653333
74.4654	0.626667
73.9412	0.585
73.419	0.57
72.8969	0.536667
72.3725	0.488333
71.8503	0.423333
71.3259	0.335
70.8036	0.316667
70.2792	0.305
69.7568	0.298333
69.2323	0.29
68.7099	0.258333
68.1854	0.23
67.6629	0.208333
67.1383	0.185
66.6136	0.176667
66.0911	0.153333
65.5664	0.158333
65.0437	0.158333
64.519	0.141667
63.9963	0.125
63.4715	0.133333
62.9488	0.146667
62.4239	0.141667
61.8989	0.18
61.3761	0.18
60.8512	0.19
60.3283	0.14
59.8032	0.121667
59.2782	0.103333
58.7552	0.105
58.2301	0.0983333
57.7071	0.118333
57.1819	0.173333
56.6567	0.266667
56.1336	0.198333
55.6083	0.106667
55.083	0.0783333
54.5598	0.0733333
54.0344	0.0583333
53.509	0.0633333
52.9858	0.06
52.4603	0.0516667
51.9348	0.0433333
51.4115	0.045
50.8859	0.0466667
50.3604	0.0383333
49.8369	0.0383333
49.3113	0.0433333
48.7856	0.0416667
48.2621	0.04
47.7364	0.04
47.2106	0.035
46.6849	0.04
46.1612	0.0383333
45.6354	0.0433333
45.1095	0.0433333
44.5836	0.0383333
44.0598	0.0416667
43.5339	0.04
43.0079	0.04
42.4819	0.0383333
41.958	0.0433333
41.4319	0.0383333
40.9058	0.045
40.3797	0.0416667
39.8535	0.045
39.3295	0.0416667
38.8033	0.045
38.277	0.05
37.7508	0.0516667
37.2245	0.0483333
36.7003	0.0533333
36.1739	0.0516667
35.6475	0.0383333
35.1211	0.0516667
34.5946	0.0533333
34.0681	0.05
33.5438	0.05
33.0172	0.0566667
32.4907	0.0566667
31.9641	0.055
31.4374	0.06
30.9108	0.06
30.3841	0.05
29.8574	0.0533333
29.3306	0.06
28.806	0.0666667
28.2792	0.0633333
27.7524	0.0683333
27.2255	0.0666667
26.6986	0.0683333
26.1717	0.0666667
25.6447	0.0783333
25.1177	0.0766667
24.5907	0.0783333
24.0637	0.09
23.5366	0.0783333
23.0095	0.0883333
22.4824	0.1
21.9552	0.095
21.428	0.0933333
20.9008	0.118333
20.3735	0.111667
19.8462	0.103333
19.3189	0.136667
18.7916	0.133333
18.2642	0.145
17.7368	0.141667
17.2094	0.151667
16.6819	0.168333
16.1544	0.2
15.6269	0.248333
15.0994	0.265
14.5718	0.288333
