#Acq. time (s)=	600
#Accumulations=	2
#Range=	Off
#Autofocus=	Off
#AutoExposure=	Off
#Spike filter=	Multiple accum.
#Delay time (s)=	0
#Binning=	1
#Readout mode=	Signal
#DeNoise=	Off
#ICS correction=	Off
#Dark correction=	Off
#Inst. Process=	Off
#Detector Gain=	Best Dynamic Range
#Detector ADC=	20 kHz       
#Detector temperature (°C)=	-130.58
#Instrument=	LabRAM HR Evol
#Detector=	Synapse/Symphony II
#Objective=	x50_VIS_LWD
#Grating=	1800 (450-850nm)
#ND Filter=	25%
#Laser=	532nm_Edge
#Spectro (cm-¹)=	279.986
#Hole=	150.001
#Range=	Visible
#AFM=	Off
#Collection=	Microscope
#StageXY=	Manual stage
#StageZ=	Marzhauser
#X (µm)=	0
#Y (µm)=	0
#Z (µm)=	524.65
#Full time(mm:ss)=	20:01
#Project=	Caps
#Sample=	Caps
#Site=	Caps
#Title=	CaMn2Bi2_2
#Remark=	
#Date=	02.07.2023 19:22
#End Platform Temp (K)=	179.997
#Polarizer=	84.9993
#Analyzer=	0
#Acquired=	02.07.2023 19:22:49
#AxisType[0]=Intens
#AxisUnit[0]=Cnt/sec
#AxisType[1]=Spectr
#AxisUnit[1]=1/cm
533.589	0.08
533.102	0.0833333
532.614	0.1
532.127	0.0816667
531.64	0.0933333
531.151	0.0966667
530.665	0.09
530.176	0.0933333
529.689	0.085
529.2	0.09
528.713	0.103333
528.224	0.0933333
527.737	0.0816667
527.249	0.0833333
526.762	0.0916667
526.275	0.0866667
525.785	0.0933333
525.298	0.0733333
524.809	0.0966667
524.32	0.0866667
523.833	0.0866667
523.344	0.0966667
522.857	0.0916667
522.367	0.0966667
521.88	0.095
521.391	0.0866667
520.904	0.095
520.414	0.085
519.927	0.0916667
519.438	0.0966667
518.948	0.0933333
518.461	0.108333
517.971	0.0816667
517.484	0.0966667
516.994	0.0916667
516.505	0.085
516.017	0.0916667
515.527	0.1
515.038	0.085
514.55	0.0933333
514.061	0.103333
513.573	0.09
513.083	0.0883333
512.593	0.085
512.106	0.09
511.616	0.0866667
511.126	0.0866667
510.638	0.095
510.148	0.103333
509.658	0.0916667
509.168	0.1
508.68	0.103333
508.19	0.1
507.7	0.1
507.212	0.095
506.722	0.0966667
506.232	0.108333
505.742	0.0983333
505.254	0.0966667
504.764	0.095
504.273	0.101667
503.783	0.0983333
503.295	0.1
502.805	0.1
502.314	0.0933333
501.824	0.1
501.334	0.101667
500.845	0.0983333
500.355	0.103333
499.864	0.0883333
499.374	0.0916667
498.883	0.1
498.395	0.0983333
497.904	0.0983333
497.414	0.1
496.923	0.101667
496.433	0.095
495.942	0.095
495.451	0.0983333
494.963	0.101667
494.472	0.0966667
493.981	0.0883333
493.49	0.108333
492.999	0.09
492.509	0.1
492.018	0.101667
491.527	0.115
491.036	0.106667
490.545	0.101667
490.056	0.103333
489.565	0.0983333
489.074	0.111667
488.583	0.101667
488.092	0.108333
487.601	0.11
487.11	0.101667
486.618	0.108333
486.127	0.0783333
485.636	0.1
485.145	0.113333
484.654	0.108333
484.162	0.113333
483.671	0.1
483.18	0.1
482.688	0.118333
482.197	0.0983333
481.705	0.111667
481.214	0.103333
480.722	0.0983333
480.231	0.11
479.739	0.101667
479.248	0.118333
478.756	0.11
478.265	0.0983333
477.771	0.105
477.279	0.1
476.788	0.106667
476.296	0.106667
475.804	0.103333
475.312	0.11
474.821	0.111667
474.329	0.105
473.837	0.11
473.345	0.11
472.851	0.11
472.359	0.11
471.867	0.123333
471.375	0.116667
470.883	0.115
470.391	0.121667
469.897	0.138333
469.405	0.128333
468.913	0.133333
468.421	0.14
467.929	0.148333
467.436	0.15
466.942	0.161667
466.45	0.165
465.958	0.185
465.465	0.181667
464.971	0.193333
464.479	0.196667
463.986	0.218333
463.494	0.208333
463.001	0.2
462.507	0.191667
462.014	0.196667
461.522	0.156667
461.027	0.156667
460.535	0.148333
460.042	0.15
459.55	0.146667
459.055	0.125
458.562	0.131667
458.069	0.136667
457.575	0.125
457.082	0.113333
456.589	0.111667
456.094	0.105
455.602	0.111667
455.109	0.116667
454.614	0.13
454.121	0.116667
453.628	0.101667
453.133	0.103333
452.64	0.11
452.147	0.11
451.652	0.11
451.159	0.108333
450.664	0.108333
450.17	0.118333
449.677	0.11
449.182	0.111667
448.689	0.121667
448.194	0.11
447.7	0.115
447.207	0.095
446.712	0.111667
446.218	0.111667
445.723	0.09
445.23	0.105
444.734	0.108333
444.241	0.0966667
443.745	0.108333
443.252	0.111667
442.756	0.11
442.263	0.11
441.767	0.111667
441.273	0.116667
440.778	0.1
440.284	0.113333
439.788	0.106667
439.295	0.106667
438.799	0.0983333
438.305	0.103333
437.809	0.115
437.315	0.11
436.819	0.115
436.326	0.11
435.83	0.1
435.334	0.116667
434.84	0.103333
434.344	0.11
433.85	0.103333
433.354	0.12
432.858	0.108333
432.363	0.0966667
431.867	0.115
431.373	0.105
430.877	0.11
430.381	0.101667
429.887	0.11
429.39	0.113333
428.894	0.111667
428.4	0.116667
427.903	0.11
427.407	0.12
426.912	0.111667
426.416	0.105
425.919	0.108333
425.425	0.106667
424.928	0.101667
424.432	0.101667
423.937	0.095
423.441	0.101667
422.944	0.0983333
422.45	0.105
421.953	0.0983333
421.456	0.103333
420.959	0.113333
420.465	0.108333
419.968	0.12
419.471	0.108333
418.974	0.0966667
418.479	0.108333
417.982	0.116667
417.485	0.115
416.989	0.0983333
416.492	0.1
415.997	0.1
415.5	0.113333
415.002	0.115
414.505	0.116667
414.008	0.0966667
413.513	0.106667
413.016	0.1
412.519	0.12
412.022	0.108333
411.524	0.108333
411.027	0.105
410.532	0.105
410.034	0.11
409.537	0.103333
409.04	0.11
408.542	0.0983333
408.045	0.106667
407.547	0.111667
407.05	0.106667
406.552	0.108333
406.057	0.108333
405.559	0.103333
405.062	0.128333
404.564	0.105
404.066	0.108333
403.569	0.108333
403.071	0.106667
402.573	0.116667
402.075	0.09
401.577	0.106667
401.08	0.103333
400.582	0.108333
400.084	0.118333
399.586	0.11
399.088	0.0966667
398.59	0.108333
398.092	0.095
397.594	0.1
397.096	0.1
396.598	0.103333
396.1	0.0983333
395.602	0.11
395.104	0.11
394.605	0.106667
394.107	0.106667
393.609	0.11
393.111	0.105
392.612	0.121667
392.114	0.115
391.616	0.108333
391.117	0.101667
390.619	0.113333
390.119	0.12
389.62	0.105
389.122	0.1
388.623	0.106667
388.125	0.108333
387.626	0.1
387.128	0.0933333
386.629	0.11
386.128	0.108333
385.63	0.1
385.131	0.0983333
384.632	0.111667
384.133	0.0866667
383.635	0.106667
383.136	0.095
382.635	0.121667
382.136	0.116667
381.637	0.09
381.138	0.116667
380.639	0.1
380.138	0.105
379.639	0.09
379.14	0.095
378.641	0.108333
378.142	0.11
377.641	0.11
377.142	0.103333
376.643	0.1
376.144	0.111667
375.642	0.108333
375.143	0.103333
374.644	0.0983333
374.145	0.118333
373.643	0.106667
373.144	0.103333
372.644	0.115
372.143	0.106667
371.644	0.106667
371.144	0.123333
370.643	0.111667
370.143	0.116667
369.644	0.095
369.142	0.108333
368.642	0.115
368.143	0.111667
367.641	0.0983333
367.141	0.115
366.642	0.11
366.14	0.111667
365.64	0.111667
365.14	0.113333
364.638	0.116667
364.139	0.105
363.637	0.115
363.137	0.113333
362.637	0.121667
362.135	0.11
361.635	0.115
361.133	0.138333
360.633	0.121667
360.133	0.125
359.631	0.108333
359.131	0.113333
358.628	0.118333
358.128	0.101667
357.626	0.116667
357.126	0.133333
356.623	0.131667
356.123	0.12
355.621	0.11
355.12	0.128333
354.618	0.121667
354.118	0.118333
353.615	0.116667
353.115	0.13
352.612	0.121667
352.112	0.106667
351.609	0.111667
351.109	0.111667
350.606	0.108333
350.105	0.118333
349.603	0.123333
349.102	0.13
348.599	0.125
348.099	0.126667
347.596	0.1
347.093	0.101667
346.592	0.115
346.089	0.115
345.589	0.106667
345.086	0.118333
344.583	0.108333
344.082	0.0983333
343.579	0.133333
343.078	0.126667
342.575	0.118333
342.072	0.118333
341.57	0.113333
341.067	0.12
340.564	0.118333
340.063	0.106667
339.56	0.113333
339.056	0.121667
338.555	0.116667
338.052	0.113333
337.549	0.131667
337.047	0.105
336.544	0.11
336.04	0.113333
335.539	0.116667
335.036	0.11
334.532	0.106667
334.029	0.11
333.527	0.103333
333.023	0.113333
332.52	0.105
332.016	0.111667
331.515	0.115
331.011	0.11
330.507	0.118333
330.003	0.121667
329.502	0.12
328.998	0.111667
328.494	0.111667
327.99	0.111667
327.488	0.115
326.984	0.115
326.48	0.111667
325.976	0.116667
325.472	0.118333
324.968	0.121667
324.466	0.113333
323.962	0.125
323.458	0.133333
322.954	0.121667
322.45	0.123333
321.946	0.111667
321.444	0.121667
320.939	0.123333
320.435	0.121667
319.931	0.115
319.426	0.101667
318.922	0.121667
318.418	0.128333
317.913	0.101667
317.409	0.108333
316.906	0.108333
316.402	0.113333
315.897	0.126667
315.393	0.111667
314.888	0.108333
314.384	0.126667
313.879	0.101667
313.374	0.108333
312.87	0.116667
312.365	0.118333
311.86	0.118333
311.355	0.12
310.85	0.118333
310.346	0.116667
309.841	0.116667
309.336	0.121667
308.831	0.118333
308.326	0.116667
307.821	0.126667
307.316	0.126667
306.811	0.118333
306.306	0.11
305.801	0.11
305.296	0.121667
304.791	0.111667
304.285	0.118333
303.78	0.113333
303.275	0.118333
302.77	0.12
302.264	0.12
301.759	0.108333
301.254	0.115
300.746	0.115
300.241	0.126667
299.736	0.13
299.23	0.135
298.725	0.12
298.219	0.123333
297.714	0.118333
297.208	0.118333
296.7	0.115
296.195	0.105
295.689	0.125
295.184	0.116667
294.678	0.113333
294.172	0.113333
293.666	0.121667
293.159	0.125
292.653	0.128333
292.147	0.126667
291.641	0.13
291.135	0.13
290.627	0.133333
290.121	0.13
289.615	0.133333
289.109	0.116667
288.603	0.126667
288.095	0.128333
287.589	0.125
287.083	0.118333
286.577	0.121667
286.068	0.128333
285.562	0.135
285.056	0.128333
284.55	0.135
284.041	0.131667
283.535	0.138333
283.029	0.12
282.52	0.125
282.014	0.123333
281.508	0.125
281.001	0.125
280.493	0.125
279.986	0.138333
279.48	0.131667
278.971	0.133333
278.464	0.126667
277.958	0.14
277.449	0.121667
276.942	0.115
276.436	0.125
275.927	0.13
275.42	0.131667
274.911	0.121667
274.404	0.138333
273.898	0.12
273.389	0.14
272.882	0.133333
272.375	0.138333
271.866	0.126667
271.359	0.141667
270.85	0.121667
270.343	0.145
269.834	0.131667
269.327	0.133333
268.819	0.113333
268.31	0.136667
267.803	0.133333
267.294	0.115
266.787	0.116667
266.277	0.121667
265.77	0.136667
265.261	0.133333
264.753	0.125
264.244	0.133333
263.736	0.131667
263.227	0.14
262.719	0.116667
262.21	0.128333
261.702	0.128333
261.193	0.13
260.685	0.123333
260.176	0.115
259.668	0.126667
259.158	0.121667
258.651	0.14
258.141	0.115
257.633	0.133333
257.123	0.131667
256.613	0.125
256.105	0.121667
255.596	0.13
255.088	0.118333
254.578	0.115
254.07	0.13
253.56	0.116667
253.05	0.116667
252.542	0.116667
252.032	0.115
251.521	0.115
251.013	0.133333
250.503	0.133333
249.995	0.123333
249.485	0.12
248.974	0.138333
248.466	0.128333
247.956	0.128333
247.446	0.131667
246.937	0.116667
246.427	0.126667
245.916	0.133333
245.408	0.141667
244.897	0.138333
244.387	0.123333
243.876	0.128333
243.368	0.136667
242.857	0.131667
242.346	0.123333
241.838	0.118333
241.327	0.116667
240.816	0.138333
240.306	0.13
239.797	0.116667
239.286	0.141667
238.775	0.135
238.264	0.128333
237.756	0.123333
237.245	0.128333
236.734	0.126667
236.223	0.145
235.712	0.123333
235.203	0.13
234.692	0.128333
234.181	0.131667
233.669	0.131667
233.158	0.121667
232.649	0.126667
232.138	0.133333
231.627	0.135
231.115	0.133333
230.604	0.133333
230.093	0.133333
229.581	0.126667
229.072	0.136667
228.561	0.131667
228.049	0.128333
227.538	0.131667
227.026	0.138333
226.515	0.13
226.003	0.146667
225.492	0.138333
224.98	0.133333
224.471	0.136667
223.959	0.136667
223.447	0.145
222.935	0.141667
222.424	0.145
221.912	0.146667
221.4	0.138333
220.888	0.151667
220.376	0.131667
219.864	0.146667
219.353	0.143333
218.841	0.151667
218.329	0.141667
217.817	0.15
217.305	0.148333
216.793	0.148333
216.28	0.153333
215.768	0.161667
215.256	0.168333
214.744	0.155
214.232	0.156667
213.72	0.136667
213.207	0.151667
212.695	0.145
212.183	0.166667
211.67	0.166667
211.158	0.161667
210.646	0.165
210.133	0.166667
209.621	0.15
209.108	0.161667
208.596	0.176667
208.081	0.151667
207.568	0.141667
207.056	0.146667
206.543	0.166667
206.031	0.163333
205.518	0.165
205.005	0.178333
204.492	0.166667
203.98	0.153333
203.465	0.163333
202.952	0.165
202.439	0.158333
201.926	0.161667
201.413	0.156667
200.9	0.156667
200.387	0.153333
199.872	0.161667
199.359	0.165
198.846	0.168333
198.333	0.155
197.82	0.158333
197.305	0.151667
196.792	0.156667
196.278	0.163333
195.765	0.161667
195.252	0.145
194.736	0.146667
194.223	0.143333
193.71	0.155
193.196	0.143333
192.681	0.161667
192.167	0.156667
191.654	0.151667
191.141	0.143333
190.625	0.143333
190.111	0.153333
189.598	0.143333
189.082	0.153333
188.569	0.153333
188.055	0.13
187.541	0.15
187.025	0.148333
186.512	0.151667
185.998	0.135
185.482	0.145
184.968	0.136667
184.454	0.133333
183.938	0.146667
183.424	0.136667
182.91	0.155
182.394	0.133333
181.88	0.133333
181.366	0.15
180.85	0.153333
180.336	0.15
179.82	0.135
179.306	0.146667
178.792	0.138333
178.275	0.131667
177.761	0.128333
177.245	0.141667
176.73	0.123333
176.216	0.146667
175.7	0.158333
175.185	0.15
174.669	0.138333
174.154	0.151667
173.638	0.143333
173.123	0.136667
172.609	0.146667
172.092	0.141667
171.578	0.128333
171.061	0.143333
170.546	0.15
170.03	0.143333
169.515	0.146667
168.998	0.12
168.483	0.14
167.967	0.146667
167.452	0.151667
166.935	0.143333
166.42	0.151667
165.903	0.146667
165.388	0.148333
164.871	0.143333
164.354	0.146667
163.839	0.165
163.322	0.148333
162.807	0.148333
162.29	0.166667
161.774	0.151667
161.257	0.15
160.742	0.181667
160.225	0.173333
159.707	0.185
159.192	0.198333
158.675	0.215
158.159	0.236667
157.642	0.263333
157.125	0.266667
156.609	0.29
156.092	0.306667
155.574	0.27
155.059	0.236667
154.541	0.196667
154.023	0.185
153.508	0.17
152.99	0.185
152.474	0.156667
151.957	0.165
151.439	0.148333
150.921	0.145
150.405	0.148333
149.887	0.155
149.37	0.15
148.854	0.146667
148.336	0.153333
147.818	0.16
147.302	0.16
146.784	0.165
146.266	0.146667
145.748	0.143333
145.232	0.148333
144.713	0.153333
144.195	0.131667
143.677	0.145
143.161	0.14
142.643	0.15
142.124	0.145
141.606	0.146667
141.09	0.161667
140.571	0.161667
140.053	0.178333
139.534	0.165
139.016	0.165
138.5	0.145
137.981	0.153333
137.462	0.136667
136.944	0.14
136.425	0.15
135.907	0.138333
135.39	0.13
134.871	0.128333
134.352	0.148333
133.834	0.151667
133.315	0.158333
132.796	0.151667
132.277	0.155
131.76	0.166667
131.242	0.148333
130.723	0.153333
130.204	0.175
129.685	0.165
129.166	0.165
128.647	0.16
128.127	0.151667
127.608	0.151667
127.089	0.16
126.57	0.163333
126.053	0.168333
125.534	0.17
125.014	0.173333
124.495	0.198333
123.976	0.201667
123.456	0.178333
122.937	0.165
122.418	0.156667
121.898	0.165
121.379	0.163333
120.859	0.15
120.34	0.17
119.82	0.181667
119.301	0.19
118.781	0.178333
118.261	0.176667
117.742	0.17
117.222	0.19
116.702	0.21
116.183	0.205
115.663	0.188333
115.143	0.181667
114.623	0.18
114.103	0.168333
113.583	0.181667
113.061	0.191667
112.541	0.19
112.021	0.215
111.501	0.191667
110.981	0.191667
110.461	0.22
109.941	0.221667
109.421	0.258333
108.901	0.308333
108.381	0.336667
107.858	0.355
107.338	0.358333
106.818	0.315
106.297	0.346667
105.777	0.353333
105.257	0.371667
104.736	0.373333
104.214	0.41
103.693	0.426667
103.173	0.496667
102.652	0.561667
102.132	0.586667
101.611	0.646667
101.088	0.74
100.568	0.716667
100.047	0.723333
99.5265	0.72
99.0058	0.691667
98.4829	0.623333
97.9622	0.606667
97.4414	0.53
96.9206	0.525
96.3997	0.51
95.8767	0.49
95.3558	0.485
94.8348	0.441667
94.3139	0.4
93.7907	0.416667
93.2697	0.466667
92.7486	0.538333
92.2254	0.523333
91.7043	0.468333
91.1831	0.376667
90.662	0.375
90.1386	0.378333
89.6174	0.361667
89.0961	0.361667
88.5727	0.373333
88.0514	0.371667
87.53	0.393333
87.0065	0.388333
86.4851	0.376667
85.9637	0.411667
85.4401	0.451667
84.9186	0.51
84.397	0.496667
83.8733	0.48
83.3518	0.445
82.8301	0.446667
82.3064	0.466667
81.7847	0.498333
81.2609	0.503333
80.7391	0.541667
80.2174	0.578333
79.6935	0.605
79.1716	0.651667
78.6477	0.685
78.1258	0.748333
77.6039	0.843333
77.0798	0.895
76.5578	0.918333
76.0337	0.861667
75.5117	0.79
74.9875	0.745
74.4654	0.698333
73.9412	0.658333
73.419	0.601667
72.8969	0.563333
72.3725	0.505
71.8503	0.421667
71.3259	0.378333
70.8036	0.348333
70.2792	0.33
69.7568	0.315
69.2323	0.271667
68.7099	0.263333
68.1854	0.238333
67.6629	0.218333
67.1383	0.198333
66.6136	0.181667
66.0911	0.176667
65.5664	0.168333
65.0437	0.16
64.519	0.145
63.9963	0.148333
63.4715	0.126667
62.9488	0.14
62.4239	0.171667
61.8989	0.18
61.3761	0.191667
60.8512	0.191667
60.3283	0.151667
59.8032	0.126667
59.2782	0.116667
58.7552	0.103333
58.2301	0.1
57.7071	0.125
57.1819	0.181667
56.6567	0.271667
56.1336	0.178333
55.6083	0.12
55.083	0.0833333
54.5598	0.075
54.0344	0.0583333
53.509	0.06
52.9858	0.0533333
52.4603	0.0566667
51.9348	0.055
51.4115	0.0466667
50.8859	0.0466667
50.3604	0.0416667
49.8369	0.0416667
49.3113	0.0383333
48.7856	0.0383333
48.2621	0.0383333
47.7364	0.0416667
47.2106	0.0383333
46.6849	0.04
46.1612	0.0416667
45.6354	0.04
45.1095	0.045
44.5836	0.0433333
44.0598	0.0383333
43.5339	0.0416667
43.0079	0.0383333
42.4819	0.04
41.958	0.0416667
41.4319	0.0416667
40.9058	0.045
40.3797	0.0466667
39.8535	0.05
39.3295	0.0433333
38.8033	0.05
38.277	0.0466667
37.7508	0.055
37.2245	0.0616667
36.7003	0.0533333
36.1739	0.05
35.6475	0.0483333
35.1211	0.06
34.5946	0.05
34.0681	0.0533333
33.5438	0.055
33.0172	0.045
32.4907	0.0533333
31.9641	0.0566667
31.4374	0.0616667
30.9108	0.07
30.3841	0.0616667
29.8574	0.0616667
29.3306	0.065
28.806	0.0716667
28.2792	0.07
27.7524	0.0766667
27.2255	0.0633333
26.6986	0.085
26.1717	0.08
25.6447	0.075
25.1177	0.0816667
24.5907	0.08
24.0637	0.085
23.5366	0.1
23.0095	0.115
22.4824	0.113333
21.9552	0.0933333
21.428	0.105
20.9008	0.105
20.3735	0.121667
19.8462	0.12
19.3189	0.125
18.7916	0.128333
18.2642	0.133333
17.7368	0.156667
17.2094	0.148333
16.6819	0.18
16.1544	0.215
15.6269	0.251667
15.0994	0.263333
14.5718	0.303333
