#Acq. time (s)=	600
#Accumulations=	2
#Range=	Off
#Autofocus=	Off
#AutoExposure=	Off
#Spike filter=	Multiple accum.
#Delay time (s)=	0
#Binning=	1
#Readout mode=	Signal
#DeNoise=	Off
#ICS correction=	Off
#Dark correction=	Off
#Inst. Process=	Off
#Detector Gain=	Best Dynamic Range
#Detector ADC=	20 kHz       
#Detector temperature (°C)=	-128.75
#Instrument=	LabRAM HR Evol
#Detector=	Synapse/Symphony II
#Objective=	x50_VIS_LWD
#Grating=	1800 (450-850nm)
#ND Filter=	25%
#Laser=	532nm_Edge
#Spectro (cm-¹)=	279.986
#Hole=	150.001
#Range=	Visible
#AFM=	Off
#Collection=	Microscope
#StageXY=	Manual stage
#StageZ=	Marzhauser
#X (µm)=	0
#Y (µm)=	0
#Z (µm)=	524.65
#Full time(mm:ss)=	20:01
#Project=	Caps
#Sample=	Caps
#Site=	Caps
#Title=	CaMn2Bi2_12
#Remark=	
#Date=	30.06.2023 04:58
#End Platform Temp (K)=	30
#Polarizer=	124.999074
#Analyzer=	0
#Acquired=	30.06.2023 04:58:18
#AxisType[0]=Intens
#AxisUnit[0]=Cnt/sec
#AxisType[1]=Spectr
#AxisUnit[1]=1/cm
533.589	0.0783333
533.102	0.0716667
532.614	0.0766667
532.127	0.0766667
531.64	0.07
531.151	0.0666667
530.665	0.0783333
530.176	0.075
529.689	0.07
529.2	0.0716667
528.713	0.0733333
528.224	0.075
527.737	0.065
527.249	0.075
526.762	0.06
526.275	0.085
525.785	0.0716667
525.298	0.0783333
524.809	0.0683333
524.32	0.0766667
523.833	0.0766667
523.344	0.0666667
522.857	0.0766667
522.367	0.0783333
521.88	0.0783333
521.391	0.065
520.904	0.0716667
520.414	0.075
519.927	0.075
519.438	0.0816667
518.948	0.0733333
518.461	0.0716667
517.971	0.075
517.484	0.075
516.994	0.0766667
516.505	0.07
516.017	0.0733333
515.527	0.0783333
515.038	0.0733333
514.55	0.075
514.061	0.0733333
513.573	0.0716667
513.083	0.0766667
512.593	0.075
512.106	0.07
511.616	0.07
511.126	0.07
510.638	0.0766667
510.148	0.0683333
509.658	0.0816667
509.168	0.08
508.68	0.075
508.19	0.08
507.7	0.075
507.212	0.0716667
506.722	0.0783333
506.232	0.0816667
505.742	0.0716667
505.254	0.0766667
504.764	0.075
504.273	0.065
503.783	0.0783333
503.295	0.0783333
502.805	0.0716667
502.314	0.0683333
501.824	0.08
501.334	0.0733333
500.845	0.0766667
500.355	0.0733333
499.864	0.0766667
499.374	0.07
498.883	0.0716667
498.395	0.07
497.904	0.08
497.414	0.0783333
496.923	0.0716667
496.433	0.0783333
495.942	0.07
495.451	0.0616667
494.963	0.0733333
494.472	0.0866667
493.981	0.0816667
493.49	0.0766667
492.999	0.0733333
492.509	0.0883333
492.018	0.0733333
491.527	0.0783333
491.036	0.09
490.545	0.0783333
490.056	0.0816667
489.565	0.0866667
489.074	0.085
488.583	0.0783333
488.092	0.075
487.601	0.0666667
487.11	0.0866667
486.618	0.0766667
486.127	0.0816667
485.636	0.085
485.145	0.0666667
484.654	0.0783333
484.162	0.0816667
483.671	0.07
483.18	0.0716667
482.688	0.075
482.197	0.0816667
481.705	0.0833333
481.214	0.0716667
480.722	0.0766667
480.231	0.0733333
479.739	0.0766667
479.248	0.0833333
478.756	0.0833333
478.265	0.075
477.771	0.0833333
477.279	0.0716667
476.788	0.08
476.296	0.0666667
475.804	0.0683333
475.312	0.065
474.821	0.09
474.329	0.0816667
473.837	0.0933333
473.345	0.0833333
472.851	0.09
472.359	0.0816667
471.867	0.09
471.375	0.0966667
470.883	0.09
470.391	0.1
469.897	0.09
469.405	0.0966667
468.913	0.0966667
468.421	0.11
467.929	0.111667
467.436	0.11
466.942	0.121667
466.45	0.125
465.958	0.135
465.465	0.13
464.971	0.133333
464.479	0.155
463.986	0.143333
463.494	0.151667
463.001	0.135
462.507	0.121667
462.014	0.128333
461.522	0.12
461.027	0.116667
460.535	0.111667
460.042	0.118333
459.55	0.103333
459.055	0.105
458.562	0.105
458.069	0.0933333
457.575	0.0883333
457.082	0.0966667
456.589	0.0933333
456.094	0.0833333
455.602	0.0933333
455.109	0.0983333
454.614	0.0966667
454.121	0.0933333
453.628	0.0866667
453.133	0.09
452.64	0.075
452.147	0.0966667
451.652	0.0883333
451.159	0.09
450.664	0.0966667
450.17	0.0883333
449.677	0.09
449.182	0.0883333
448.689	0.09
448.194	0.085
447.7	0.0983333
447.207	0.095
446.712	0.101667
446.218	0.0966667
445.723	0.101667
445.23	0.0966667
444.734	0.101667
444.241	0.0883333
443.745	0.105
443.252	0.11
442.756	0.12
442.263	0.116667
441.767	0.128333
441.273	0.111667
440.778	0.121667
440.284	0.121667
439.788	0.14
439.295	0.126667
438.799	0.136667
438.305	0.138333
437.809	0.123333
437.315	0.136667
436.819	0.146667
436.326	0.136667
435.83	0.145
435.334	0.14
434.84	0.136667
434.344	0.158333
433.85	0.178333
433.354	0.163333
432.858	0.183333
432.363	0.17
431.867	0.168333
431.373	0.153333
430.877	0.17
430.381	0.163333
429.887	0.19
429.39	0.175
428.894	0.185
428.4	0.185
427.903	0.18
427.407	0.18
426.912	0.186667
426.416	0.175
425.919	0.193333
425.425	0.19
424.928	0.201667
424.432	0.195
423.937	0.198333
423.441	0.196667
422.944	0.208333
422.45	0.216667
421.953	0.205
421.456	0.203333
420.959	0.215
420.465	0.203333
419.968	0.208333
419.471	0.206667
418.974	0.2
418.479	0.208333
417.982	0.2
417.485	0.208333
416.989	0.198333
416.492	0.208333
415.997	0.211667
415.5	0.191667
415.002	0.2
414.505	0.19
414.008	0.198333
413.513	0.178333
413.016	0.176667
412.519	0.173333
412.022	0.191667
411.524	0.175
411.027	0.181667
410.532	0.193333
410.034	0.181667
409.537	0.203333
409.04	0.166667
408.542	0.18
408.045	0.171667
407.547	0.186667
407.05	0.181667
406.552	0.186667
406.057	0.17
405.559	0.185
405.062	0.173333
404.564	0.168333
404.066	0.171667
403.569	0.175
403.071	0.17
402.573	0.185
402.075	0.188333
401.577	0.191667
401.08	0.19
400.582	0.188333
400.084	0.18
399.586	0.155
399.088	0.183333
398.59	0.176667
398.092	0.181667
397.594	0.176667
397.096	0.153333
396.598	0.165
396.1	0.17
395.602	0.17
395.104	0.156667
394.605	0.175
394.107	0.18
393.609	0.173333
393.111	0.183333
392.612	0.188333
392.114	0.158333
391.616	0.166667
391.117	0.178333
390.619	0.175
390.119	0.156667
389.62	0.178333
389.122	0.171667
388.623	0.176667
388.125	0.17
387.626	0.166667
387.128	0.191667
386.629	0.168333
386.128	0.166667
385.63	0.146667
385.131	0.18
384.632	0.195
384.133	0.173333
383.635	0.175
383.136	0.176667
382.635	0.166667
382.136	0.166667
381.637	0.17
381.138	0.183333
380.639	0.181667
380.138	0.18
379.639	0.168333
379.14	0.168333
378.641	0.183333
378.142	0.186667
377.641	0.17
377.142	0.176667
376.643	0.175
376.144	0.176667
375.642	0.198333
375.143	0.188333
374.644	0.188333
374.145	0.185
373.643	0.19
373.144	0.185
372.644	0.195
372.143	0.183333
371.644	0.19
371.144	0.175
370.643	0.21
370.143	0.19
369.644	0.17
369.142	0.176667
368.642	0.201667
368.143	0.165
367.641	0.191667
367.141	0.198333
366.642	0.175
366.14	0.168333
365.64	0.175
365.14	0.188333
364.638	0.195
364.139	0.191667
363.637	0.196667
363.137	0.19
362.637	0.191667
362.135	0.19
361.635	0.186667
361.133	0.19
360.633	0.181667
360.133	0.188333
359.631	0.181667
359.131	0.178333
358.628	0.196667
358.128	0.188333
357.626	0.195
357.126	0.166667
356.623	0.198333
356.123	0.2
355.621	0.188333
355.12	0.198333
354.618	0.183333
354.118	0.196667
353.615	0.188333
353.115	0.19
352.612	0.198333
352.112	0.183333
351.609	0.19
351.109	0.183333
350.606	0.18
350.105	0.171667
349.603	0.191667
349.102	0.186667
348.599	0.186667
348.099	0.18
347.596	0.181667
347.093	0.18
346.592	0.17
346.089	0.173333
345.589	0.193333
345.086	0.166667
344.583	0.186667
344.082	0.165
343.579	0.181667
343.078	0.186667
342.575	0.201667
342.072	0.166667
341.57	0.173333
341.067	0.19
340.564	0.183333
340.063	0.191667
339.56	0.18
339.056	0.178333
338.555	0.183333
338.052	0.183333
337.549	0.175
337.047	0.186667
336.544	0.17
336.04	0.166667
335.539	0.175
335.036	0.175
334.532	0.195
334.029	0.203333
333.527	0.19
333.023	0.166667
332.52	0.171667
332.016	0.175
331.515	0.17
331.011	0.176667
330.507	0.175
330.003	0.185
329.502	0.18
328.998	0.196667
328.494	0.173333
327.99	0.186667
327.488	0.17
326.984	0.183333
326.48	0.188333
325.976	0.178333
325.472	0.185
324.968	0.176667
324.466	0.18
323.962	0.173333
323.458	0.21
322.954	0.191667
322.45	0.181667
321.946	0.196667
321.444	0.195
320.939	0.19
320.435	0.186667
319.931	0.171667
319.426	0.181667
318.922	0.198333
318.418	0.198333
317.913	0.18
317.409	0.176667
316.906	0.2
316.402	0.161667
315.897	0.183333
315.393	0.178333
314.888	0.165
314.384	0.168333
313.879	0.166667
313.374	0.181667
312.87	0.181667
312.365	0.195
311.86	0.191667
311.355	0.201667
310.85	0.195
310.346	0.19
309.841	0.2
309.336	0.175
308.831	0.193333
308.326	0.193333
307.821	0.175
307.316	0.195
306.811	0.183333
306.306	0.198333
305.801	0.19
305.296	0.173333
304.791	0.196667
304.285	0.193333
303.78	0.22
303.275	0.191667
302.77	0.22
302.264	0.213333
301.759	0.22
301.254	0.2
300.746	0.213333
300.241	0.198333
299.736	0.193333
299.23	0.203333
298.725	0.225
298.219	0.208333
297.714	0.213333
297.208	0.211667
296.7	0.231667
296.195	0.221667
295.689	0.193333
295.184	0.213333
294.678	0.185
294.172	0.201667
293.666	0.205
293.159	0.19
292.653	0.188333
292.147	0.201667
291.641	0.201667
291.135	0.208333
290.627	0.2
290.121	0.196667
289.615	0.191667
289.109	0.185
288.603	0.181667
288.095	0.173333
287.589	0.188333
287.083	0.173333
286.577	0.183333
286.068	0.181667
285.562	0.165
285.056	0.178333
284.55	0.178333
284.041	0.175
283.535	0.153333
283.029	0.168333
282.52	0.163333
282.014	0.161667
281.508	0.16
281.001	0.173333
280.493	0.168333
279.986	0.168333
279.48	0.156667
278.971	0.168333
278.464	0.156667
277.958	0.161667
277.449	0.153333
276.942	0.161667
276.436	0.163333
275.927	0.128333
275.42	0.156667
274.911	0.15
274.404	0.163333
273.898	0.14
273.389	0.151667
272.882	0.145
272.375	0.145
271.866	0.148333
271.359	0.131667
270.85	0.145
270.343	0.143333
269.834	0.15
269.327	0.156667
268.819	0.141667
268.31	0.153333
267.803	0.128333
267.294	0.14
266.787	0.14
266.277	0.146667
265.77	0.13
265.261	0.136667
264.753	0.125
264.244	0.126667
263.736	0.133333
263.227	0.135
262.719	0.138333
262.21	0.131667
261.702	0.125
261.193	0.126667
260.685	0.133333
260.176	0.13
259.668	0.126667
259.158	0.125
258.651	0.12
258.141	0.121667
257.633	0.113333
257.123	0.118333
256.613	0.121667
256.105	0.113333
255.596	0.125
255.088	0.133333
254.578	0.125
254.07	0.125
253.56	0.115
253.05	0.116667
252.542	0.108333
252.032	0.118333
251.521	0.128333
251.013	0.123333
250.503	0.116667
249.995	0.11
249.485	0.118333
248.974	0.118333
248.466	0.116667
247.956	0.118333
247.446	0.115
246.937	0.118333
246.427	0.115
245.916	0.115
245.408	0.116667
244.897	0.106667
244.387	0.106667
243.876	0.11
243.368	0.12
242.857	0.105
242.346	0.101667
241.838	0.1
241.327	0.116667
240.816	0.1
240.306	0.111667
239.797	0.106667
239.286	0.113333
238.775	0.111667
238.264	0.111667
237.756	0.11
237.245	0.108333
236.734	0.111667
236.223	0.105
235.712	0.105
235.203	0.0933333
234.692	0.115
234.181	0.111667
233.669	0.11
233.158	0.103333
232.649	0.113333
232.138	0.111667
231.627	0.11
231.115	0.108333
230.604	0.103333
230.093	0.105
229.581	0.111667
229.072	0.11
228.561	0.11
228.049	0.103333
227.538	0.106667
227.026	0.121667
226.515	0.103333
226.003	0.111667
225.492	0.108333
224.98	0.101667
224.471	0.106667
223.959	0.095
223.447	0.101667
222.935	0.103333
222.424	0.108333
221.912	0.105
221.4	0.0983333
220.888	0.1
220.376	0.101667
219.864	0.1
219.353	0.113333
218.841	0.105
218.329	0.111667
217.817	0.11
217.305	0.103333
216.793	0.103333
216.28	0.113333
215.768	0.111667
215.256	0.115
214.744	0.12
214.232	0.113333
213.72	0.0983333
213.207	0.121667
212.695	0.095
212.183	0.095
211.67	0.12
211.158	0.108333
210.646	0.11
210.133	0.125
209.621	0.103333
209.108	0.101667
208.596	0.115
208.081	0.11
207.568	0.111667
207.056	0.118333
206.543	0.123333
206.031	0.125
205.518	0.113333
205.005	0.12
204.492	0.118333
203.98	0.113333
203.465	0.111667
202.952	0.11
202.439	0.115
201.926	0.116667
201.413	0.121667
200.9	0.116667
200.387	0.111667
199.872	0.108333
199.359	0.108333
198.846	0.115
198.333	0.11
197.82	0.103333
197.305	0.0916667
196.792	0.1
196.278	0.105
195.765	0.103333
195.252	0.111667
194.736	0.095
194.223	0.09
193.71	0.0933333
193.196	0.0933333
192.681	0.0933333
192.167	0.095
191.654	0.095
191.141	0.095
190.625	0.0966667
190.111	0.0966667
189.598	0.095
189.082	0.105
188.569	0.095
188.055	0.0933333
187.541	0.1
187.025	0.0983333
186.512	0.0933333
185.998	0.0933333
185.482	0.0883333
184.968	0.0966667
184.454	0.0933333
183.938	0.0833333
183.424	0.095
182.91	0.0883333
182.394	0.0833333
181.88	0.0933333
181.366	0.0933333
180.85	0.0833333
180.336	0.09
179.82	0.0933333
179.306	0.09
178.792	0.095
178.275	0.0916667
177.761	0.1
177.245	0.075
176.73	0.08
176.216	0.08
175.7	0.0916667
175.185	0.0716667
174.669	0.0916667
174.154	0.08
173.638	0.0783333
173.123	0.101667
172.609	0.095
172.092	0.101667
171.578	0.0883333
171.061	0.103333
170.546	0.0783333
170.03	0.095
169.515	0.0816667
168.998	0.09
168.483	0.0933333
167.967	0.0883333
167.452	0.09
166.935	0.0883333
166.42	0.0916667
165.903	0.085
165.388	0.0916667
164.871	0.095
164.354	0.0983333
163.839	0.0966667
163.322	0.0883333
162.807	0.0833333
162.29	0.095
161.774	0.0933333
161.257	0.095
160.742	0.108333
160.225	0.095
159.707	0.0983333
159.192	0.156667
158.675	0.186667
158.159	0.316667
157.642	0.333333
157.125	0.171667
156.609	0.128333
156.092	0.111667
155.574	0.0983333
155.059	0.101667
154.541	0.0866667
154.023	0.075
153.508	0.0933333
152.99	0.0966667
152.474	0.0766667
151.957	0.08
151.439	0.0966667
150.921	0.0816667
150.405	0.0816667
149.887	0.09
149.37	0.075
148.854	0.0883333
148.336	0.09
147.818	0.0983333
147.302	0.0866667
146.784	0.0933333
146.266	0.0833333
145.748	0.0816667
145.232	0.0733333
144.713	0.0783333
144.195	0.0783333
143.677	0.075
143.161	0.0866667
142.643	0.0783333
142.124	0.0783333
141.606	0.105
141.09	0.101667
140.571	0.108333
140.053	0.115
139.534	0.103333
139.016	0.085
138.5	0.0716667
137.981	0.0866667
137.462	0.0783333
136.944	0.0916667
136.425	0.0916667
135.907	0.08
135.39	0.0933333
134.871	0.0883333
134.352	0.0816667
133.834	0.0833333
133.315	0.085
132.796	0.105
132.277	0.0766667
131.76	0.0933333
131.242	0.105
130.723	0.0983333
130.204	0.108333
129.685	0.095
129.166	0.101667
128.647	0.095
128.127	0.106667
127.608	0.0866667
127.089	0.0916667
126.57	0.0866667
126.053	0.0883333
125.534	0.095
125.014	0.131667
124.495	0.135
123.976	0.131667
123.456	0.116667
122.937	0.1
122.418	0.0783333
121.898	0.0883333
121.379	0.0783333
120.859	0.085
120.34	0.0933333
119.82	0.0916667
119.301	0.106667
118.781	0.115
118.261	0.11
117.742	0.105
117.222	0.11
116.702	0.12
116.183	0.115
115.663	0.118333
115.143	0.118333
114.623	0.106667
114.103	0.103333
113.583	0.106667
113.061	0.116667
112.541	0.115
112.021	0.123333
111.501	0.131667
110.981	0.158333
110.461	0.173333
109.941	0.198333
109.421	0.246667
108.901	0.286667
108.381	0.326667
107.858	0.34
107.338	0.325
106.818	0.326667
106.297	0.353333
105.777	0.385
105.257	0.425
104.736	0.448333
104.214	0.545
103.693	0.52
103.173	0.595
102.652	0.59
102.132	0.56
101.611	0.536667
101.088	0.488333
100.568	0.415
100.047	0.383333
99.5265	0.333333
99.0058	0.308333
98.4829	0.27
97.9622	0.265
97.4414	0.266667
96.9206	0.27
96.3997	0.276667
95.8767	0.273333
95.3558	0.258333
94.8348	0.251667
94.3139	0.253333
93.7907	0.355
93.2697	0.44
92.7486	0.368333
92.2254	0.293333
91.7043	0.248333
91.1831	0.225
90.662	0.215
90.1386	0.218333
89.6174	0.221667
89.0961	0.208333
88.5727	0.223333
88.0514	0.213333
87.53	0.221667
87.0065	0.218333
86.4851	0.223333
85.9637	0.255
85.4401	0.286667
84.9186	0.333333
84.397	0.335
83.8733	0.28
83.3518	0.265
82.8301	0.278333
82.3064	0.278333
81.7847	0.29
81.2609	0.32
80.7391	0.336667
80.2174	0.391667
79.6935	0.473333
79.1716	0.785
78.6477	1.25333
78.1258	0.936667
77.6039	0.698333
77.0798	0.646667
76.5578	0.608333
76.0337	0.521667
75.5117	0.468333
74.9875	0.406667
74.4654	0.378333
73.9412	0.363333
73.419	0.341667
72.8969	0.273333
72.3725	0.228333
71.8503	0.19
71.3259	0.15
70.8036	0.145
70.2792	0.145
69.7568	0.138333
69.2323	0.146667
68.7099	0.14
68.1854	0.123333
67.6629	0.105
67.1383	0.09
66.6136	0.0766667
66.0911	0.09
65.5664	0.0716667
65.0437	0.0833333
64.519	0.075
63.9963	0.0666667
63.4715	0.0633333
62.9488	0.0933333
62.4239	0.103333
61.8989	0.131667
61.3761	0.136667
60.8512	0.128333
60.3283	0.0866667
59.8032	0.0616667
59.2782	0.0616667
58.7552	0.06
58.2301	0.0666667
57.7071	0.133333
57.1819	0.273333
56.6567	0.128333
56.1336	0.0733333
55.6083	0.055
55.083	0.06
54.5598	0.0483333
54.0344	0.0533333
53.509	0.0566667
52.9858	0.05
52.4603	0.05
51.9348	0.04
51.4115	0.04
50.8859	0.0383333
50.3604	0.0433333
49.8369	0.0416667
49.3113	0.04
48.7856	0.0366667
48.2621	0.0366667
47.7364	0.0416667
47.2106	0.0366667
46.6849	0.0383333
46.1612	0.04
45.6354	0.0433333
45.1095	0.035
44.5836	0.045
44.0598	0.045
43.5339	0.0433333
43.0079	0.0483333
42.4819	0.0416667
41.958	0.0366667
41.4319	0.0483333
40.9058	0.0466667
40.3797	0.0366667
39.8535	0.0483333
39.3295	0.0516667
38.8033	0.0433333
38.277	0.05
37.7508	0.0466667
37.2245	0.05
36.7003	0.0483333
36.1739	0.0483333
35.6475	0.045
35.1211	0.0633333
34.5946	0.05
34.0681	0.06
33.5438	0.0533333
33.0172	0.0516667
32.4907	0.055
31.9641	0.065
31.4374	0.07
30.9108	0.0666667
30.3841	0.0633333
29.8574	0.065
29.3306	0.0666667
28.806	0.0683333
28.2792	0.0666667
27.7524	0.07
27.2255	0.065
26.6986	0.0816667
26.1717	0.075
25.6447	0.08
25.1177	0.0833333
24.5907	0.09
24.0637	0.0783333
23.5366	0.0933333
23.0095	0.108333
22.4824	0.101667
21.9552	0.113333
21.428	0.0983333
20.9008	0.103333
20.3735	0.115
19.8462	0.121667
19.3189	0.135
18.7916	0.151667
18.2642	0.13
17.7368	0.128333
17.2094	0.15
16.6819	0.183333
16.1544	0.21
15.6269	0.266667
15.0994	0.248333
14.5718	0.293333
