#Acq. time (s)=	600
#Accumulations=	2
#Range=	Off
#Autofocus=	Off
#AutoExposure=	Off
#Spike filter=	Multiple accum.
#Delay time (s)=	0
#Binning=	1
#Readout mode=	Signal
#DeNoise=	Off
#ICS correction=	Off
#Dark correction=	Off
#Inst. Process=	Off
#Detector Gain=	Best Dynamic Range
#Detector ADC=	20 kHz       
#Detector temperature (°C)=	-128.75
#Instrument=	LabRAM HR Evol
#Detector=	Synapse/Symphony II
#Objective=	x50_VIS_LWD
#Grating=	1800 (450-850nm)
#ND Filter=	25%
#Laser=	532nm_Edge
#Spectro (cm-¹)=	279.986
#Hole=	150.001
#Range=	Visible
#AFM=	Off
#Collection=	Microscope
#StageXY=	Manual stage
#StageZ=	Marzhauser
#X (µm)=	0
#Y (µm)=	0
#Z (µm)=	524.65
#Full time(mm:ss)=	20:01
#Project=	Caps
#Sample=	Caps
#Site=	Caps
#Title=	CaMn2Bi2_12
#Remark=	
#Date=	30.06.2023 04:18
#End Platform Temp (K)=	30.001
#Polarizer=	114.99957
#Analyzer=	0
#Acquired=	30.06.2023 04:18:11
#AxisType[0]=Intens
#AxisUnit[0]=Cnt/sec
#AxisType[1]=Spectr
#AxisUnit[1]=1/cm
533.589	0.0766667
533.102	0.08
532.614	0.0666667
532.127	0.0766667
531.64	0.0783333
531.151	0.0733333
530.665	0.0583333
530.176	0.0616667
529.689	0.0666667
529.2	0.0733333
528.713	0.075
528.224	0.0783333
527.737	0.0683333
527.249	0.0733333
526.762	0.0733333
526.275	0.0833333
525.785	0.0783333
525.298	0.065
524.809	0.0716667
524.32	0.0733333
523.833	0.0866667
523.344	0.07
522.857	0.0716667
522.367	0.0766667
521.88	0.07
521.391	0.0683333
520.904	0.065
520.414	0.08
519.927	0.07
519.438	0.08
518.948	0.0866667
518.461	0.0733333
517.971	0.0766667
517.484	0.0766667
516.994	0.0783333
516.505	0.075
516.017	0.065
515.527	0.075
515.038	0.0683333
514.55	0.08
514.061	0.0666667
513.573	0.0666667
513.083	0.0766667
512.593	0.07
512.106	0.08
511.616	0.075
511.126	0.0783333
510.638	0.0766667
510.148	0.0766667
509.658	0.0733333
509.168	0.075
508.68	0.065
508.19	0.08
507.7	0.0766667
507.212	0.0733333
506.722	0.0633333
506.232	0.0766667
505.742	0.0733333
505.254	0.0883333
504.764	0.0783333
504.273	0.0883333
503.783	0.0733333
503.295	0.0733333
502.805	0.075
502.314	0.08
501.824	0.085
501.334	0.0833333
500.845	0.075
500.355	0.0816667
499.864	0.0733333
499.374	0.0883333
498.883	0.0766667
498.395	0.085
497.904	0.0833333
497.414	0.085
496.923	0.0766667
496.433	0.0583333
495.942	0.075
495.451	0.0833333
494.963	0.0733333
494.472	0.08
493.981	0.0833333
493.49	0.0766667
492.999	0.0866667
492.509	0.0866667
492.018	0.08
491.527	0.08
491.036	0.0816667
490.545	0.09
490.056	0.0783333
489.565	0.085
489.074	0.0783333
488.583	0.0866667
488.092	0.0816667
487.601	0.0833333
487.11	0.0766667
486.618	0.09
486.127	0.0816667
485.636	0.0883333
485.145	0.08
484.654	0.0816667
484.162	0.0733333
483.671	0.0816667
483.18	0.085
482.688	0.075
482.197	0.0866667
481.705	0.0833333
481.214	0.085
480.722	0.09
480.231	0.0816667
479.739	0.095
479.248	0.0966667
478.756	0.0866667
478.265	0.085
477.771	0.085
477.279	0.0833333
476.788	0.0783333
476.296	0.0816667
475.804	0.0866667
475.312	0.0816667
474.821	0.0983333
474.329	0.095
473.837	0.0983333
473.345	0.0883333
472.851	0.0916667
472.359	0.0866667
471.867	0.105
471.375	0.108333
470.883	0.105
470.391	0.105
469.897	0.101667
469.405	0.103333
468.913	0.12
468.421	0.108333
467.929	0.121667
467.436	0.125
466.942	0.131667
466.45	0.133333
465.958	0.151667
465.465	0.155
464.971	0.15
464.479	0.17
463.986	0.166667
463.494	0.168333
463.001	0.16
462.507	0.155
462.014	0.145
461.522	0.141667
461.027	0.136667
460.535	0.118333
460.042	0.121667
459.55	0.111667
459.055	0.105
458.562	0.095
458.069	0.111667
457.575	0.108333
457.082	0.108333
456.589	0.105
456.094	0.0966667
455.602	0.103333
455.109	0.103333
454.614	0.09
454.121	0.1
453.628	0.0916667
453.133	0.0983333
452.64	0.095
452.147	0.0966667
451.652	0.0966667
451.159	0.0916667
450.664	0.106667
450.17	0.103333
449.677	0.101667
449.182	0.105
448.689	0.0916667
448.194	0.101667
447.7	0.101667
447.207	0.095
446.712	0.0983333
446.218	0.111667
445.723	0.11
445.23	0.118333
444.734	0.113333
444.241	0.116667
443.745	0.116667
443.252	0.121667
442.756	0.136667
442.263	0.133333
441.767	0.13
441.273	0.165
440.778	0.15
440.284	0.141667
439.788	0.16
439.295	0.155
438.799	0.163333
438.305	0.158333
437.809	0.163333
437.315	0.166667
436.819	0.171667
436.326	0.181667
435.83	0.16
435.334	0.188333
434.84	0.19
434.344	0.206667
433.85	0.178333
433.354	0.196667
432.858	0.191667
432.363	0.203333
431.867	0.198333
431.373	0.213333
430.877	0.211667
430.381	0.213333
429.887	0.216667
429.39	0.203333
428.894	0.226667
428.4	0.23
427.903	0.223333
427.407	0.223333
426.912	0.243333
426.416	0.238333
425.919	0.256667
425.425	0.243333
424.928	0.246667
424.432	0.265
423.937	0.245
423.441	0.251667
422.944	0.248333
422.45	0.251667
421.953	0.246667
421.456	0.231667
420.959	0.243333
420.465	0.25
419.968	0.225
419.471	0.233333
418.974	0.258333
418.479	0.25
417.982	0.25
417.485	0.241667
416.989	0.261667
416.492	0.243333
415.997	0.243333
415.5	0.235
415.002	0.231667
414.505	0.23
414.008	0.24
413.513	0.248333
413.016	0.228333
412.519	0.231667
412.022	0.235
411.524	0.245
411.027	0.231667
410.532	0.236667
410.034	0.231667
409.537	0.223333
409.04	0.216667
408.542	0.231667
408.045	0.203333
407.547	0.216667
407.05	0.235
406.552	0.228333
406.057	0.236667
405.559	0.21
405.062	0.22
404.564	0.205
404.066	0.22
403.569	0.221667
403.071	0.226667
402.573	0.2
402.075	0.21
401.577	0.213333
401.08	0.221667
400.582	0.21
400.084	0.211667
399.586	0.221667
399.088	0.218333
398.59	0.216667
398.092	0.213333
397.594	0.2
397.096	0.218333
396.598	0.218333
396.1	0.221667
395.602	0.23
395.104	0.22
394.605	0.22
394.107	0.22
393.609	0.221667
393.111	0.221667
392.612	0.223333
392.114	0.221667
391.616	0.218333
391.117	0.205
390.619	0.211667
390.119	0.208333
389.62	0.233333
389.122	0.213333
388.623	0.218333
388.125	0.211667
387.626	0.208333
387.128	0.188333
386.629	0.22
386.128	0.213333
385.63	0.213333
385.131	0.216667
384.632	0.218333
384.133	0.215
383.635	0.223333
383.136	0.22
382.635	0.228333
382.136	0.23
381.637	0.223333
381.138	0.22
380.639	0.223333
380.138	0.231667
379.639	0.235
379.14	0.218333
378.641	0.231667
378.142	0.216667
377.641	0.23
377.142	0.223333
376.643	0.231667
376.144	0.235
375.642	0.226667
375.143	0.226667
374.644	0.223333
374.145	0.23
373.643	0.248333
373.144	0.25
372.644	0.243333
372.143	0.255
371.644	0.251667
371.144	0.281667
370.643	0.248333
370.143	0.226667
369.644	0.233333
369.142	0.241667
368.642	0.23
368.143	0.233333
367.641	0.233333
367.141	0.228333
366.642	0.225
366.14	0.221667
365.64	0.251667
365.14	0.236667
364.638	0.223333
364.139	0.228333
363.637	0.236667
363.137	0.236667
362.637	0.228333
362.135	0.235
361.635	0.233333
361.133	0.246667
360.633	0.218333
360.133	0.23
359.631	0.218333
359.131	0.233333
358.628	0.238333
358.128	0.226667
357.626	0.24
357.126	0.238333
356.623	0.236667
356.123	0.225
355.621	0.263333
355.12	0.25
354.618	0.238333
354.118	0.241667
353.615	0.246667
353.115	0.226667
352.612	0.23
352.112	0.24
351.609	0.211667
351.109	0.235
350.606	0.23
350.105	0.235
349.603	0.238333
349.102	0.236667
348.599	0.233333
348.099	0.221667
347.596	0.231667
347.093	0.221667
346.592	0.22
346.089	0.201667
345.589	0.233333
345.086	0.241667
344.583	0.233333
344.082	0.23
343.579	0.22
343.078	0.21
342.575	0.213333
342.072	0.221667
341.57	0.211667
341.067	0.23
340.564	0.206667
340.063	0.216667
339.56	0.23
339.056	0.228333
338.555	0.228333
338.052	0.241667
337.549	0.226667
337.047	0.208333
336.544	0.223333
336.04	0.225
335.539	0.225
335.036	0.238333
334.532	0.23
334.029	0.215
333.527	0.226667
333.023	0.225
332.52	0.228333
332.016	0.243333
331.515	0.235
331.011	0.238333
330.507	0.218333
330.003	0.218333
329.502	0.246667
328.998	0.241667
328.494	0.238333
327.99	0.221667
327.488	0.235
326.984	0.238333
326.48	0.245
325.976	0.245
325.472	0.226667
324.968	0.248333
324.466	0.228333
323.962	0.228333
323.458	0.248333
322.954	0.226667
322.45	0.24
321.946	0.243333
321.444	0.235
320.939	0.241667
320.435	0.241667
319.931	0.24
319.426	0.236667
318.922	0.218333
318.418	0.238333
317.913	0.231667
317.409	0.245
316.906	0.211667
316.402	0.228333
315.897	0.195
315.393	0.241667
314.888	0.246667
314.384	0.223333
313.879	0.226667
313.374	0.23
312.87	0.228333
312.365	0.228333
311.86	0.245
311.355	0.231667
310.85	0.243333
310.346	0.243333
309.841	0.251667
309.336	0.241667
308.831	0.24
308.326	0.231667
307.821	0.248333
307.316	0.238333
306.811	0.235
306.306	0.235
305.801	0.243333
305.296	0.238333
304.791	0.246667
304.285	0.26
303.78	0.278333
303.275	0.271667
302.77	0.246667
302.264	0.246667
301.759	0.28
301.254	0.261667
300.746	0.266667
300.241	0.251667
299.736	0.253333
299.23	0.271667
298.725	0.28
298.219	0.271667
297.714	0.271667
297.208	0.28
296.7	0.273333
296.195	0.265
295.689	0.261667
295.184	0.248333
294.678	0.258333
294.172	0.276667
293.666	0.258333
293.159	0.261667
292.653	0.238333
292.147	0.226667
291.641	0.243333
291.135	0.243333
290.627	0.241667
290.121	0.233333
289.615	0.245
289.109	0.216667
288.603	0.226667
288.095	0.225
287.589	0.233333
287.083	0.23
286.577	0.216667
286.068	0.21
285.562	0.226667
285.056	0.216667
284.55	0.228333
284.041	0.211667
283.535	0.218333
283.029	0.211667
282.52	0.215
282.014	0.185
281.508	0.208333
281.001	0.213333
280.493	0.196667
279.986	0.208333
279.48	0.17
278.971	0.2
278.464	0.201667
277.958	0.191667
277.449	0.188333
276.942	0.203333
276.436	0.195
275.927	0.203333
275.42	0.19
274.911	0.175
274.404	0.186667
273.898	0.198333
273.389	0.2
272.882	0.183333
272.375	0.183333
271.866	0.18
271.359	0.178333
270.85	0.166667
270.343	0.171667
269.834	0.175
269.327	0.163333
268.819	0.168333
268.31	0.186667
267.803	0.17
267.294	0.16
266.787	0.155
266.277	0.166667
265.77	0.18
265.261	0.168333
264.753	0.168333
264.244	0.166667
263.736	0.16
263.227	0.168333
262.719	0.176667
262.21	0.146667
261.702	0.151667
261.193	0.161667
260.685	0.171667
260.176	0.145
259.668	0.155
259.158	0.146667
258.651	0.158333
258.141	0.16
257.633	0.143333
257.123	0.14
256.613	0.136667
256.105	0.141667
255.596	0.14
255.088	0.13
254.578	0.136667
254.07	0.13
253.56	0.135
253.05	0.14
252.542	0.14
252.032	0.148333
251.521	0.145
251.013	0.141667
250.503	0.141667
249.995	0.133333
249.485	0.13
248.974	0.126667
248.466	0.135
247.956	0.126667
247.446	0.126667
246.937	0.135
246.427	0.13
245.916	0.126667
245.408	0.13
244.897	0.13
244.387	0.136667
243.876	0.128333
243.368	0.135
242.857	0.135
242.346	0.133333
241.838	0.128333
241.327	0.13
240.816	0.123333
240.306	0.12
239.797	0.116667
239.286	0.123333
238.775	0.123333
238.264	0.115
237.756	0.135
237.245	0.118333
236.734	0.135
236.223	0.13
235.712	0.128333
235.203	0.123333
234.692	0.116667
234.181	0.125
233.669	0.13
233.158	0.125
232.649	0.118333
232.138	0.116667
231.627	0.125
231.115	0.126667
230.604	0.125
230.093	0.125
229.581	0.113333
229.072	0.121667
228.561	0.118333
228.049	0.125
227.538	0.12
227.026	0.118333
226.515	0.123333
226.003	0.121667
225.492	0.126667
224.98	0.126667
224.471	0.128333
223.959	0.128333
223.447	0.108333
222.935	0.126667
222.424	0.13
221.912	0.13
221.4	0.131667
220.888	0.108333
220.376	0.125
219.864	0.116667
219.353	0.115
218.841	0.12
218.329	0.131667
217.817	0.121667
217.305	0.131667
216.793	0.123333
216.28	0.13
215.768	0.131667
215.256	0.128333
214.744	0.113333
214.232	0.12
213.72	0.121667
213.207	0.12
212.695	0.128333
212.183	0.135
211.67	0.121667
211.158	0.121667
210.646	0.133333
210.133	0.11
209.621	0.105
209.108	0.128333
208.596	0.126667
208.081	0.135
207.568	0.126667
207.056	0.125
206.543	0.126667
206.031	0.131667
205.518	0.121667
205.005	0.13
204.492	0.121667
203.98	0.121667
203.465	0.128333
202.952	0.121667
202.439	0.126667
201.926	0.125
201.413	0.115
200.9	0.133333
200.387	0.121667
199.872	0.116667
199.359	0.116667
198.846	0.113333
198.333	0.103333
197.82	0.115
197.305	0.108333
196.792	0.108333
196.278	0.106667
195.765	0.116667
195.252	0.118333
194.736	0.0933333
194.223	0.103333
193.71	0.0966667
193.196	0.11
192.681	0.095
192.167	0.111667
191.654	0.105
191.141	0.11
190.625	0.105
190.111	0.103333
189.598	0.0933333
189.082	0.0933333
188.569	0.1
188.055	0.0933333
187.541	0.12
187.025	0.101667
186.512	0.095
185.998	0.11
185.482	0.103333
184.968	0.1
184.454	0.0933333
183.938	0.0916667
183.424	0.0933333
182.91	0.101667
182.394	0.11
181.88	0.09
181.366	0.0816667
180.85	0.101667
180.336	0.103333
179.82	0.0966667
179.306	0.1
178.792	0.0883333
178.275	0.0983333
177.761	0.0883333
177.245	0.101667
176.73	0.0916667
176.216	0.095
175.7	0.0983333
175.185	0.0933333
174.669	0.0883333
174.154	0.0916667
173.638	0.0833333
173.123	0.09
172.609	0.101667
172.092	0.0983333
171.578	0.0883333
171.061	0.0966667
170.546	0.0916667
170.03	0.0916667
169.515	0.0883333
168.998	0.0833333
168.483	0.105
167.967	0.09
167.452	0.0966667
166.935	0.1
166.42	0.0833333
165.903	0.0883333
165.388	0.0833333
164.871	0.0866667
164.354	0.0916667
163.839	0.0983333
163.322	0.103333
162.807	0.0983333
162.29	0.085
161.774	0.0933333
161.257	0.101667
160.742	0.1
160.225	0.0883333
159.707	0.103333
159.192	0.14
158.675	0.163333
158.159	0.29
157.642	0.351667
157.125	0.183333
156.609	0.128333
156.092	0.101667
155.574	0.111667
155.059	0.0916667
154.541	0.0883333
154.023	0.09
153.508	0.101667
152.99	0.0916667
152.474	0.0816667
151.957	0.0983333
151.439	0.0866667
150.921	0.0783333
150.405	0.09
149.887	0.1
149.37	0.0833333
148.854	0.09
148.336	0.09
147.818	0.0916667
147.302	0.075
146.784	0.09
146.266	0.0733333
145.748	0.0816667
145.232	0.1
144.713	0.0766667
144.195	0.0833333
143.677	0.0733333
143.161	0.0833333
142.643	0.0783333
142.124	0.09
141.606	0.0933333
141.09	0.108333
140.571	0.111667
140.053	0.101667
139.534	0.121667
139.016	0.085
138.5	0.0883333
137.981	0.0766667
137.462	0.0816667
136.944	0.0883333
136.425	0.08
135.907	0.0866667
135.39	0.09
134.871	0.0783333
134.352	0.1
133.834	0.08
133.315	0.0916667
132.796	0.103333
132.277	0.0983333
131.76	0.103333
131.242	0.108333
130.723	0.106667
130.204	0.106667
129.685	0.11
129.166	0.0916667
128.647	0.0883333
128.127	0.103333
127.608	0.103333
127.089	0.095
126.57	0.085
126.053	0.085
125.534	0.0983333
125.014	0.116667
124.495	0.136667
123.976	0.121667
123.456	0.101667
122.937	0.0816667
122.418	0.085
121.898	0.0916667
121.379	0.0933333
120.859	0.0883333
120.34	0.0866667
119.82	0.101667
119.301	0.105
118.781	0.123333
118.261	0.105
117.742	0.101667
117.222	0.128333
116.702	0.123333
116.183	0.133333
115.663	0.128333
115.143	0.101667
114.623	0.111667
114.103	0.113333
113.583	0.118333
113.061	0.125
112.541	0.133333
112.021	0.138333
111.501	0.156667
110.981	0.168333
110.461	0.18
109.941	0.218333
109.421	0.275
108.901	0.325
108.381	0.363333
107.858	0.365
107.338	0.376667
106.818	0.388333
106.297	0.378333
105.777	0.431667
105.257	0.468333
104.736	0.568333
104.214	0.586667
103.693	0.643333
103.173	0.698333
102.652	0.681667
102.132	0.636667
101.611	0.605
101.088	0.571667
100.568	0.511667
100.047	0.411667
99.5265	0.345
99.0058	0.301667
98.4829	0.268333
97.9622	0.245
97.4414	0.233333
96.9206	0.261667
96.3997	0.253333
95.8767	0.251667
95.3558	0.245
94.8348	0.205
94.3139	0.22
93.7907	0.246667
93.2697	0.305
92.7486	0.303333
92.2254	0.261667
91.7043	0.206667
91.1831	0.196667
90.662	0.185
90.1386	0.2
89.6174	0.186667
89.0961	0.2
88.5727	0.218333
88.0514	0.2
87.53	0.196667
87.0065	0.216667
86.4851	0.205
85.9637	0.236667
85.4401	0.278333
84.9186	0.318333
84.397	0.305
83.8733	0.261667
83.3518	0.231667
82.8301	0.233333
82.3064	0.22
81.7847	0.243333
81.2609	0.265
80.7391	0.29
80.2174	0.33
79.6935	0.378333
79.1716	0.668333
78.6477	1.1
78.1258	0.788333
77.6039	0.56
77.0798	0.513333
76.5578	0.466667
76.0337	0.388333
75.5117	0.34
74.9875	0.298333
74.4654	0.278333
73.9412	0.281667
73.419	0.271667
72.8969	0.24
72.3725	0.203333
71.8503	0.175
71.3259	0.165
70.8036	0.123333
70.2792	0.123333
69.7568	0.133333
69.2323	0.126667
68.7099	0.126667
68.1854	0.101667
67.6629	0.1
67.1383	0.0883333
66.6136	0.0933333
66.0911	0.07
65.5664	0.0866667
65.0437	0.08
64.519	0.08
63.9963	0.07
63.4715	0.0833333
62.9488	0.0816667
62.4239	0.105
61.8989	0.14
61.3761	0.145
60.8512	0.126667
60.3283	0.09
59.8032	0.075
59.2782	0.0616667
58.7552	0.065
58.2301	0.065
57.7071	0.108333
57.1819	0.171667
56.6567	0.0966667
56.1336	0.0683333
55.6083	0.0566667
55.083	0.04
54.5598	0.0416667
54.0344	0.055
53.509	0.0416667
52.9858	0.05
52.4603	0.045
51.9348	0.0483333
51.4115	0.0466667
50.8859	0.0333333
50.3604	0.0433333
49.8369	0.0433333
49.3113	0.04
48.7856	0.0416667
48.2621	0.035
47.7364	0.0416667
47.2106	0.0416667
46.6849	0.04
46.1612	0.0466667
45.6354	0.0416667
45.1095	0.035
44.5836	0.04
44.0598	0.04
43.5339	0.0416667
43.0079	0.0333333
42.4819	0.0483333
41.958	0.0383333
41.4319	0.0533333
40.9058	0.0516667
40.3797	0.0533333
39.8535	0.05
39.3295	0.05
38.8033	0.06
38.277	0.0466667
37.7508	0.0483333
37.2245	0.0533333
36.7003	0.0516667
36.1739	0.055
35.6475	0.0533333
35.1211	0.0533333
34.5946	0.0533333
34.0681	0.0483333
33.5438	0.055
33.0172	0.0516667
32.4907	0.0566667
31.9641	0.0566667
31.4374	0.0633333
30.9108	0.0583333
30.3841	0.07
29.8574	0.0666667
29.3306	0.0616667
28.806	0.07
28.2792	0.0766667
27.7524	0.07
27.2255	0.0883333
26.6986	0.0683333
26.1717	0.085
25.6447	0.0766667
25.1177	0.0816667
24.5907	0.0833333
24.0637	0.0933333
23.5366	0.0816667
23.0095	0.101667
22.4824	0.1
21.9552	0.101667
21.428	0.116667
20.9008	0.118333
20.3735	0.12
19.8462	0.123333
19.3189	0.116667
18.7916	0.128333
18.2642	0.161667
17.7368	0.145
17.2094	0.165
16.6819	0.196667
16.1544	0.216667
15.6269	0.246667
15.0994	0.241667
14.5718	0.285
